Altitude(m)	beta_aerosol(m^-1 sr^-1)	beta_molecular(m^-1 sr^-1)
0.0	-9.13700780843e-08	9.13700780843e-08
7.47146	-9.13045696116e-08	9.13045546186e-08
14.94292	-9.12105708479e-08	9.12390671069e-08
22.41438	-9.11368476176e-08	9.11736155358e-08
29.88584	-9.10582133105e-08	9.11081998914e-08
37.3573	-9.0980381789e-08	9.10428201601e-08
44.82876	-9.08924041528e-08	9.09774763283e-08
52.30022	-9.08005384751e-08	9.09121683823e-08
59.77168	-9.06901075088e-08	9.08468963085e-08
67.24314	-9.0570084501e-08	9.07816600931e-08
74.7146	-9.03307625363e-08	9.07164597226e-08
82.18606	-8.98933075717e-08	9.06512951833e-08
89.65752	-8.90148707331e-08	9.05861664615e-08
97.12898	-8.76761486815e-08	9.05210735436e-08
104.60044	-8.57216186462e-08	9.0456016416e-08
112.0719	-8.28654448302e-08	9.0390995065e-08
119.54336	-7.9467144878e-08	9.03260094769e-08
127.01482	-7.49302632129e-08	9.02610596383e-08
134.48628	-6.96235199689e-08	9.01961455353e-08
141.95774	-6.35754516951e-08	9.01312671545e-08
149.4292	-5.57395884924e-08	9.00664244821e-08
156.90066	-4.74820984681e-08	9.00016175046e-08
164.37212	-3.94755989252e-08	8.99368462084e-08
171.84358	-2.96383487302e-08	8.98721105798e-08
179.31504	-1.87624339886e-08	8.98074106051e-08
186.7865	-8.13289619944e-09	8.97427462709e-08
194.25796	2.3549474656e-09	8.96781175635e-08
201.72942	1.63735543867e-08	8.96135244693e-08
209.20088	2.8056107778e-08	8.95489669747e-08
216.67234	4.13155950422e-08	8.94844450661e-08
224.1438	5.50529345466e-08	8.94199587299e-08
231.61526	6.86986799545e-08	8.93555079525e-08
239.08672	8.07681796676e-08	8.92910927204e-08
246.55818	9.68423860929e-08	8.92267130199e-08
254.02964	1.10576069173e-07	8.91623688375e-08
261.5011	1.24917463295e-07	8.90980601595e-08
268.97256	1.39954768768e-07	8.90337869725e-08
276.44402	1.51861122284e-07	8.89695492627e-08
283.91548	1.6939767577e-07	8.89053470168e-08
291.38694	1.82454102579e-07	8.8841180221e-08
298.8584	1.96356081087e-07	8.87770488619e-08
306.32986	2.12383866013e-07	8.87129529258e-08
313.80132	2.27116467445e-07	8.86488923992e-08
321.27278	2.44800072167e-07	8.85848672686e-08
328.74424	2.57117496027e-07	8.85208775204e-08
336.2157	2.75009484925e-07	8.8456923141e-08
343.68716	2.94334935558e-07	8.8393004117e-08
351.15862	3.14422399917e-07	8.83291204347e-08
358.63008	3.28618444169e-07	8.82652720806e-08
366.10154	3.46295124728e-07	8.82014590411e-08
373.573	3.68187438116e-07	8.81376813028e-08
381.04446	3.82439658287e-07	8.80739388521e-08
388.51592	4.04481956272e-07	8.80102316755e-08
395.98738	4.17383097157e-07	8.79465597595e-08
403.45884	4.35403345473e-07	8.78829230904e-08
410.9303	4.48515494227e-07	8.78193216549e-08
418.40176	4.66496079108e-07	8.77557554393e-08
425.87322	4.70677913429e-07	8.76922244302e-08
433.34468	4.87785930295e-07	8.7628728614e-08
440.81614	5.00512051453e-07	8.75652679773e-08
448.2876	5.14188800844e-07	8.75018425065e-08
455.75906	5.22242601687e-07	8.74384521882e-08
463.23052	5.21423492182e-07	8.73750970088e-08
470.70198	5.34918194384e-07	8.73117769548e-08
478.17344	5.4992239132e-07	8.72484920127e-08
485.6449	5.45310389923e-07	8.71852421691e-08
493.11636	5.47434156504e-07	8.71220274104e-08
500.58782	5.55187261212e-07	8.70588477232e-08
508.05928	5.64582529836e-07	8.6995703094e-08
515.53074	5.59209543536e-07	8.69325935093e-08
523.0022	5.67514791543e-07	8.68695189556e-08
530.47366	5.69869922702e-07	8.68064794194e-08
537.94512	5.7556355764e-07	8.67434748874e-08
545.41658	5.80357006242e-07	8.66805053459e-08
552.88804	5.7511094631e-07	8.66175707815e-08
560.3595	5.77052183052e-07	8.65546711809e-08
567.83096	5.74680199992e-07	8.64918065304e-08
575.30242	5.70533425811e-07	8.64289768167e-08
582.77388	5.72969929653e-07	8.63661820263e-08
590.24534	5.62645425676e-07	8.63034221457e-08
597.7168	5.66557181065e-07	8.62406971616e-08
605.18826	5.77093465005e-07	8.61780070603e-08
612.65972	5.58674584807e-07	8.61153518286e-08
620.13118	5.67793518946e-07	8.6052731453e-08
627.60264	5.7459809432e-07	8.59901459199e-08
635.0741	5.68766423711e-07	8.59275952161e-08
642.54556	5.63525209582e-07	8.5865079328e-08
650.01702	5.79108964884e-07	8.58025982423e-08
657.48848	5.65122612231e-07	8.57401519454e-08
664.95994	5.77558244532e-07	8.56777404241e-08
672.4314	5.67649329285e-07	8.56153636647e-08
679.90286	5.68213517077e-07	8.55530216541e-08
687.37432	5.79055478282e-07	8.54907143786e-08
694.84578	5.80323416789e-07	8.5428441825e-08
702.31724	5.76979827785e-07	8.53662039798e-08
709.7887	5.74995285532e-07	8.53040008296e-08
717.26016	5.61493498281e-07	8.52418323609e-08
724.73162	5.77189930823e-07	8.51796985605e-08
732.20308	5.63911689572e-07	8.51175994149e-08
739.67454	5.6577566009e-07	8.50555349106e-08
747.146	5.80235565876e-07	8.49935050344e-08
754.61746	5.63029823901e-07	8.49315097728e-08
762.08892	5.57230507431e-07	8.48695491125e-08
769.56038	5.52291450546e-07	8.48076230399e-08
777.03184	5.56441089198e-07	8.47457315419e-08
784.5033	5.57394971986e-07	8.4683874605e-08
791.97476	5.41774939635e-07	8.46220522157e-08
799.44622	5.50140696282e-07	8.45602643608e-08
806.91768	5.51072777299e-07	8.4498511027e-08
814.38914	5.45328477019e-07	8.44367922007e-08
821.8606	5.25664841646e-07	8.43751078686e-08
829.33206	5.38668469366e-07	8.43134580175e-08
836.80352	5.35531212726e-07	8.42518426339e-08
844.27498	5.31236688366e-07	8.41902617044e-08
851.74644	5.18278583941e-07	8.41287152158e-08
859.2179	5.27058214814e-07	8.40672031547e-08
866.68936	5.1997656134e-07	8.40057255077e-08
874.16082	5.31042386689e-07	8.39442822615e-08
881.63228	5.25967476248e-07	8.38828734028e-08
889.10374	5.31606012703e-07	8.38214989181e-08
896.5752	5.23915258091e-07	8.37601587943e-08
904.04666	5.19030709699e-07	8.36988530179e-08
911.51812	5.25404807858e-07	8.36375815756e-08
918.98958	5.19619873326e-07	8.35763444541e-08
926.46104	5.20884806647e-07	8.351514164e-08
933.9325	5.27800806366e-07	8.34539731202e-08
941.40396	5.14044979444e-07	8.33928388811e-08
948.87542	5.23404966528e-07	8.33317389096e-08
956.34688	5.11983088477e-07	8.32706731923e-08
963.81834	5.16817208994e-07	8.32096417159e-08
971.2898	5.14010674023e-07	8.31486444671e-08
978.76126	5.14834770042e-07	8.30876814325e-08
986.23272	5.16842220828e-07	8.3026752599e-08
993.70418	5.27592742323e-07	8.29658579532e-08
1001.17564	5.08188201341e-07	8.29049974817e-08
1008.6471	5.28692301806e-07	8.28441711714e-08
1016.11856	5.23688783778e-07	8.27833790089e-08
1023.59002	5.12114057856e-07	8.2722620981e-08
1031.06148	5.25340596322e-07	8.26618970742e-08
1038.53294	5.18449421786e-07	8.26012072755e-08
1046.0044	5.17922103917e-07	8.25405515715e-08
1053.47586	5.36087129956e-07	8.24799299489e-08
1060.94732	5.23163678932e-07	8.24193423944e-08
1068.41878	5.11385955487e-07	8.23587888949e-08
1075.89024	5.00771731889e-07	8.22982694369e-08
1083.3617	5.00359329936e-07	8.22377840074e-08
1090.83316	5.31576050239e-07	8.21773325929e-08
1098.30462	5.27366234046e-07	8.21169151802e-08
1105.77608	5.20167182706e-07	8.20565317562e-08
1113.24754	5.04530026626e-07	8.19961823075e-08
1120.719	4.95474183611e-07	8.19358668209e-08
1128.19046	5.14015524067e-07	8.18755852831e-08
1135.66192	5.0965542158e-07	8.18153376809e-08
1143.13338	5.023067736e-07	8.17551240011e-08
1150.60484	5.03626991055e-07	8.16949442305e-08
1158.0763	5.07536067296e-07	8.16347983557e-08
1165.54776	5.1066178613e-07	8.15746863636e-08
1173.01922	5.28572588361e-07	8.15146082409e-08
1180.49068	5.1350724196e-07	8.14545639744e-08
1187.96214	5.02513759899e-07	8.1394553551e-08
1195.4336	5.19018826184e-07	8.13345769573e-08
1202.90506	5.16376474568e-07	8.12746341801e-08
1210.37652	5.12719628595e-07	8.12147252063e-08
1217.84798	5.30775336142e-07	8.11548500226e-08
1225.31944	5.29361925401e-07	8.10950086159e-08
1232.7909	5.0908315812e-07	8.10352009729e-08
1240.26236	5.01135121789e-07	8.09754270803e-08
1247.73382	4.94813726084e-07	8.09156869252e-08
1255.20528	4.96750703463e-07	8.08559804941e-08
1262.67674	5.13621425025e-07	8.07963077739e-08
1270.1482	5.05206304156e-07	8.07366687515e-08
1277.61966	5.08949369497e-07	8.06770634137e-08
1285.09112	5.1744979795e-07	8.06174917472e-08
1292.56258	5.20270472636e-07	8.05579537389e-08
1300.03404	5.09140078308e-07	8.04984493756e-08
1307.5055	5.03817574389e-07	8.04389786441e-08
1314.97696	5.07434452543e-07	8.03795415313e-08
1322.44842	4.95426571583e-07	8.0320138024e-08
1329.91988	5.21153237507e-07	8.0260768109e-08
1337.39134	5.10412709441e-07	8.02014317731e-08
1344.8628	5.1922930617e-07	8.01421290032e-08
1352.33426	5.28555045989e-07	8.00828597862e-08
1359.80572	4.86289763734e-07	8.00236241089e-08
1367.27718	5.31104146358e-07	7.9964421958e-08
1374.74864	5.05594923037e-07	7.99052533206e-08
1382.2201	4.82596526057e-07	7.98461181834e-08
1389.69156	5.03522540467e-07	7.97870165332e-08
1397.16302	5.02869464902e-07	7.9727948357e-08
1404.63448	4.92252338263e-07	7.96689136416e-08
1412.10594	4.93149119181e-07	7.96099123739e-08
1419.5774	4.83162628855e-07	7.95509445407e-08
1427.04886	4.96734338626e-07	7.94920101289e-08
1434.52032	4.99756606264e-07	7.94331091254e-08
1441.99178	4.78993532495e-07	7.93742415171e-08
1449.46324	4.77236945794e-07	7.93154072908e-08
1456.9347	5.02928083543e-07	7.92566064334e-08
1464.40616	4.95496741538e-07	7.91978389317e-08
1471.87762	4.91784569237e-07	7.91391047728e-08
1479.34908	4.94435613618e-07	7.90804039435e-08
1486.82054	5.05390482245e-07	7.90217364306e-08
1494.292	4.93768770004e-07	7.89631022211e-08
1501.76346	4.9655086961e-07	7.89045013018e-08
1509.23492	4.98249804458e-07	7.88459336597e-08
1516.70638	4.83237413435e-07	7.87873992817e-08
1524.17784	5.02110468828e-07	7.87288981546e-08
1531.6493	5.11225535025e-07	7.86704302655e-08
1539.12076	5.07750776142e-07	7.86119956011e-08
1546.59222	5.03668279568e-07	7.85535941485e-08
1554.06368	5.09571316902e-07	7.84952258944e-08
1561.53514	5.3953807987e-07	7.8436890826e-08
1569.0066	5.30955739554e-07	7.837858893e-08
1576.47806	5.14733950531e-07	7.83203201934e-08
1583.94952	5.12734549381e-07	7.82620846032e-08
1591.42098	5.39494806224e-07	7.82038821462e-08
1598.89244	5.52012956703e-07	7.81457128095e-08
1606.3639	5.38464671787e-07	7.80875765798e-08
1613.83536	5.51041937013e-07	7.80294734443e-08
1621.30682	5.62688164753e-07	7.79714033898e-08
1628.77828	5.40430816619e-07	7.79133664033e-08
1636.24974	5.58246176176e-07	7.78553624717e-08
1643.7212	5.76712210773e-07	7.7797391582e-08
1651.19266	5.60531116963e-07	7.77394537211e-08
1658.66412	5.64712409565e-07	7.76815488761e-08
1666.13558	5.85594069042e-07	7.76236770338e-08
1673.60704	5.6013363859e-07	7.75658381812e-08
1681.0785	5.61664056438e-07	7.75080323053e-08
1688.54996	5.87921869419e-07	7.7450259393e-08
1696.02142	5.84214856095e-07	7.73925194314e-08
1703.49288	5.95419126447e-07	7.73348124075e-08
1710.96434	6.05660352982e-07	7.72771383081e-08
1718.4358	5.53483803666e-07	7.72194971202e-08
1725.90726	5.64999367321e-07	7.7161888831e-08
1733.37872	5.86240041806e-07	7.71043134272e-08
1740.85018	6.11649237201e-07	7.70467708961e-08
1748.32164	5.88225668995e-07	7.69892612244e-08
1755.7931	5.8006031848e-07	7.69317843993e-08
1763.26456	5.89932810001e-07	7.68743404077e-08
1770.73602	5.64800744896e-07	7.68169292366e-08
1778.20748	5.83923626831e-07	7.6759550873e-08
1785.67894	5.71183611314e-07	7.6702205304e-08
1793.1504	5.89804057222e-07	7.66448925165e-08
1800.62186	5.94320664742e-07	7.65876124976e-08
1808.09332	5.60887071018e-07	7.65303652343e-08
1815.56478	5.7018859143e-07	7.64731507136e-08
1823.03624	5.40956215422e-07	7.64159689224e-08
1830.5077	5.38681687187e-07	7.6358819848e-08
1837.97916	5.40930845613e-07	7.63017034772e-08
1845.45062	5.53146666639e-07	7.62446197971e-08
1852.92208	5.11205356633e-07	7.61875687947e-08
1860.39354	5.23549077401e-07	7.61305504571e-08
1867.865	5.3274101374e-07	7.60735647714e-08
1875.33646	5.10166075227e-07	7.60166117244e-08
1882.80792	4.60038373993e-07	7.59596913034e-08
1890.27938	4.5088086909e-07	7.59028034953e-08
1897.75084	4.16871274286e-07	7.58459482872e-08
1905.2223	4.40532307901e-07	7.57891256662e-08
1912.69376	4.02273833742e-07	7.57323356193e-08
1920.16522	4.24170385284e-07	7.56755781335e-08
1927.63668	3.65047414095e-07	7.5618853196e-08
1935.10814	3.52300526374e-07	7.55621607938e-08
1942.5796	3.425323774e-07	7.55055009139e-08
1950.05106	3.20603590113e-07	7.54488735434e-08
1957.52252	2.94803663814e-07	7.53922786695e-08
1964.99398	2.70201152602e-07	7.53357162791e-08
1972.46544	2.82268491157e-07	7.52791863594e-08
1979.9369	2.76734825928e-07	7.52226888975e-08
1987.40836	2.42245839329e-07	7.51662238803e-08
1994.87982	2.24077045679e-07	7.51097912951e-08
2002.35128	2.08653933418e-07	7.50533911289e-08
2009.82274	2.08775454726e-07	7.49970233688e-08
2017.2942	1.80500437523e-07	7.49406880019e-08
2024.76566	1.63901615047e-07	7.48843850152e-08
2032.23712	1.36765489237e-07	7.4828114396e-08
2039.70858	1.40599581518e-07	7.47718761313e-08
2047.18004	1.23446176205e-07	7.47156702082e-08
2054.6515	1.13479507528e-07	7.46594966138e-08
2062.12296	1.12695143677e-07	7.46033553352e-08
2069.59442	1.00621959059e-07	7.45472463596e-08
2077.06588	1.04440396789e-07	7.44911696741e-08
2084.53734	9.95747594812e-08	7.44351252657e-08
2092.0088	8.87625597321e-08	7.43791131217e-08
2099.48026	8.83164836262e-08	7.43231332291e-08
2106.95172	9.42197817503e-08	7.42671855751e-08
2114.42318	7.94526839481e-08	7.42112701468e-08
2121.89464	7.56571428065e-08	7.41553869314e-08
2129.3661	6.96250788225e-08	7.40995359159e-08
2136.83756	6.63340763337e-08	7.40437170876e-08
2144.30902	5.74842710927e-08	7.39879304335e-08
2151.78048	6.40059240176e-08	7.39321759408e-08
2159.25194	6.63705554222e-08	7.38764535968e-08
2166.7234	6.71850004245e-08	7.38207633884e-08
2174.19486	6.21174516846e-08	7.37651053029e-08
2181.66632	4.51210113292e-08	7.37094793275e-08
2189.13778	6.22858445485e-08	7.36538854493e-08
2196.60924	6.3281156406e-08	7.35983236554e-08
2204.0807	6.59079190297e-08	7.35427939331e-08
2211.55216	6.85607150702e-08	7.34872962695e-08
2219.02362	7.59552870436e-08	7.34318306517e-08
2226.49508	6.27883757232e-08	7.33763970671e-08
2233.96654	6.11404742601e-08	7.33209955026e-08
2241.438	6.42723169275e-08	7.32656259456e-08
2248.90946	6.88904689692e-08	7.32102883832e-08
2256.38092	6.62450261995e-08	7.31549828025e-08
2263.85238	7.92664959523e-08	7.30997091909e-08
2271.32384	9.6162099362e-08	7.30444675354e-08
2278.7953	8.14263511174e-08	7.29892578233e-08
2286.26676	9.35317201967e-08	7.29340800418e-08
2293.73822	8.83909292292e-08	7.2878934178e-08
2301.20968	7.04785988874e-08	7.28238202192e-08
2308.68114	7.35216549492e-08	7.27687381526e-08
2316.1526	7.78810213928e-08	7.27136879654e-08
2323.62406	8.02172637106e-08	7.26586696449e-08
2331.09552	7.4497185739e-08	7.26036831781e-08
2338.56698	9.12440825703e-08	7.25487285524e-08
2346.03844	8.62937647806e-08	7.24938057549e-08
2353.5099	9.1628174388e-08	7.2438914773e-08
2360.98136	7.26906488803e-08	7.23840555938e-08
2368.45282	7.95976348199e-08	7.23292282045e-08
2375.92428	9.4438485711e-08	7.22744325924e-08
2383.39574	1.02103000415e-07	7.22196687447e-08
2390.8672	8.16031096585e-08	7.21649366487e-08
2398.33866	1.02234107609e-07	7.21102362916e-08
2405.81012	1.00896971162e-07	7.20555676607e-08
2413.28158	1.32799738561e-07	7.20009307431e-08
2420.75304	1.09396965057e-07	7.19463255262e-08
2428.2245	1.16540696063e-07	7.18917519972e-08
2435.69596	1.11228934717e-07	7.18372101433e-08
2443.16742	1.23325455832e-07	7.17826999519e-08
2450.63888	1.33256787803e-07	7.17282214101e-08
2458.11034	1.09048665691e-07	7.16737745053e-08
2465.5818	1.28335308561e-07	7.16193592247e-08
2473.05326	1.07589610454e-07	7.15649755556e-08
2480.52472	1.0461012165e-07	7.15106234852e-08
2487.99618	1.24195285965e-07	7.14563030009e-08
2495.46764	1.32638791268e-07	7.14020140899e-08
2502.9391	1.17681801433e-07	7.13477567395e-08
2510.41056	1.19800620212e-07	7.12935309369e-08
2517.88202	1.25593363162e-07	7.12393366696e-08
2525.35348	1.28379084527e-07	7.11851739246e-08
2532.82494	1.50322238706e-07	7.11310426895e-08
2540.2964	1.1943061315e-07	7.10769429513e-08
2547.76786	1.33751923351e-07	7.10228746976e-08
2555.23932	1.08329012321e-07	7.09688379154e-08
2562.71078	1.35060990313e-07	7.09148325923e-08
2570.18224	1.23946329496e-07	7.08608587153e-08
2577.6537	1.19403401578e-07	7.0806916272e-08
2585.12516	1.18334622251e-07	7.07530052496e-08
2592.59662	1.19508416154e-07	7.06991256353e-08
2600.06808	1.10265834801e-07	7.06452774166e-08
2607.53954	1.44465617239e-07	7.05914605807e-08
2615.011	1.48424206996e-07	7.0537675115e-08
2622.48246	1.39493135137e-07	7.04839210067e-08
2629.95392	1.57779568738e-07	7.04301982433e-08
2637.42538	1.41399708987e-07	7.03765068121e-08
2644.89684	1.55505012389e-07	7.03228467003e-08
2652.3683	1.70106133869e-07	7.02692178954e-08
2659.83976	2.10120937352e-07	7.02156203847e-08
2667.31122	1.74060416299e-07	7.01620541555e-08
2674.78268	1.91756639919e-07	7.01085191951e-08
2682.25414	1.8048300235e-07	7.0055015491e-08
2689.7256	2.03636850459e-07	7.00015430305e-08
2697.19706	2.04220092795e-07	6.99481018009e-08
2704.66852	1.90311456899e-07	6.98946917895e-08
2712.13998	1.75159440142e-07	6.98413129839e-08
2719.61144	1.99124454815e-07	6.97879653712e-08
2727.0829	1.74121795993e-07	6.97346489389e-08
2734.55436	1.79174314244e-07	6.96813636744e-08
2742.02582	1.99175810246e-07	6.9628109565e-08
2749.49728	1.52869946982e-07	6.95748865981e-08
2756.96874	1.65934082052e-07	6.95216947611e-08
2764.4402	1.5437105568e-07	6.94685340413e-08
2771.91166	1.57161028432e-07	6.94154044262e-08
2779.38312	1.28575273358e-07	6.93623059032e-08
2786.85458	1.1506532161e-07	6.93092384595e-08
2794.32604	1.57701208949e-07	6.92562020827e-08
2801.7975	1.52929349666e-07	6.92031967601e-08
2809.26896	1.3739464179e-07	6.91502224792e-08
2816.74042	1.6508800871e-07	6.90972792272e-08
2824.21188	1.49430802054e-07	6.90443669916e-08
2831.68334	1.44463113325e-07	6.89914857599e-08
2839.1548	1.77701085563e-07	6.89386355195e-08
2846.62626	1.6928558701e-07	6.88858162576e-08
2854.09772	1.79715275089e-07	6.88330279619e-08
2861.56918	1.62860843041e-07	6.87802706196e-08
2869.04064	1.55386671559e-07	6.87275442183e-08
2876.5121	1.82727558516e-07	6.86748487452e-08
2883.98356	1.68808910599e-07	6.8622184188e-08
2891.45502	2.0015091203e-07	6.85695505339e-08
2898.92648	2.06546485314e-07	6.85169477705e-08
2906.39794	2.16690645093e-07	6.84643758851e-08
2913.8694	1.93135583408e-07	6.84118348652e-08
2921.34086	1.98316103976e-07	6.83593246983e-08
2928.81232	2.06041492641e-07	6.83068453717e-08
2936.28378	2.25148213986e-07	6.8254396873e-08
2943.75524	2.05293645413e-07	6.82019791896e-08
2951.2267	2.19496609084e-07	6.81495923089e-08
2958.69816	1.84905440007e-07	6.80972362183e-08
2966.16962	1.96127484637e-07	6.80449109055e-08
2973.64108	2.49173673841e-07	6.79926163577e-08
2981.11254	2.29291604558e-07	6.79403525626e-08
2988.584	2.24391087875e-07	6.78881195075e-08
2996.05546	2.06755778187e-07	6.78359171798e-08
3003.52692	1.97262752096e-07	6.77837455672e-08
3010.99838	2.08404061653e-07	6.77316046571e-08
3018.46984	2.04566632911e-07	6.76794944369e-08
3025.9413	2.24762391643e-07	6.76274148941e-08
3033.41276	2.09743218121e-07	6.75753660162e-08
3040.88422	2.14381329522e-07	6.75233477907e-08
3048.35568	2.40347654376e-07	6.74713602051e-08
3055.82714	1.94182222105e-07	6.74194032469e-08
3063.2986	1.87790946321e-07	6.73674769035e-08
3070.77006	2.22719671563e-07	6.73155811625e-08
3078.24152	2.31190232823e-07	6.72637160114e-08
3085.71298	1.78864203087e-07	6.72118814377e-08
3093.18444	2.13783584946e-07	6.71600774289e-08
3100.6559	2.40138681169e-07	6.71083039724e-08
3108.12736	2.24296720132e-07	6.70565610559e-08
3115.59882	2.29615707265e-07	6.70048486668e-08
3123.07028	2.43557254391e-07	6.69531667926e-08
3130.54174	2.13565474361e-07	6.69015154209e-08
3138.0132	2.30908725423e-07	6.68498945391e-08
3145.48466	2.33906339669e-07	6.67983041349e-08
3152.95612	2.47620723439e-07	6.67467441958e-08
3160.42758	2.82479297888e-07	6.66952147092e-08
3167.89904	2.21424461287e-07	6.66437156627e-08
3175.3705	2.1945108161e-07	6.65922470439e-08
3182.84196	2.21414789784e-07	6.65408088402e-08
3190.31342	2.27375471489e-07	6.64894010393e-08
3197.78488	2.28376871309e-07	6.64380236287e-08
3205.25634	2.12262408156e-07	6.63866765959e-08
